Signal Name,Original_Signal (Time Cut)
holding_voltage,2.990190746454666
unloading_parameter,[-7.45234425e-04  7.80423908e-01 -2.72576137e+02  3.17538967e+04]
peak_time,345.81
peak_value,2.987989
peak_mean,2.988612203592814
plus_minus_toleranz,0.0011471957690782704
U3,0.07679505260492281
U3_mean,0.07741825619773701
manufacturer,eaton
capacitance,25
typ,C
methode,B
klass,1
dut,1
version,1
U_R,3.0
ESR,0.018
I_c,4.386
I_dc,4.167





time,value,derivative
345.81,2.987989,-3.3488000000030196
345.82,2.954501,-3.260050000002934
345.83,2.922788,-1.8943000000035681
345.84000000000003,2.916615,-0.5362499999985175
345.85,2.912063,-0.4321000000003892
345.86,2.907973,-0.37040000000033046
345.87,2.904655,-0.3279500000002997
345.88,2.901414,-0.3086500000002843
345.89,2.898482,-0.27774999999954275
345.90000000000003,2.895859,-0.27389999999954284
345.91,2.893004,-0.25080000000025393
345.92,2.890843,-0.23150000000018167
345.93,2.888374,-0.2237500000001944
345.94,2.886368,-0.2006000000002075
345.95,2.884362,-0.2160500000001946
345.96,2.882047,-0.2083499999997116
345.97,2.880195,-0.1735999999995954
345.98,2.878575,-0.18520000000017944
345.99,2.876491,-0.25465000000025384
346.0,2.873482,-0.185150000000192
346.01,2.872788,-0.11190000000010514
346.02,2.871244,-0.181349999999469
346.03000000000003,2.869161,-0.20059999999958222
346.04,2.867232,-0.18905000000017935
346.05,2.86538,-0.18905000000017935
346.06,2.863451,-0.18515000000016357
346.07,2.861677,-0.17745000000016375
346.08,2.859902,-0.1774999999996396
346.09000000000003,2.858127,-0.1620499999996241
346.1,2.856661,-0.1582000000001358
346.11,2.854963,-0.17745000000016375
346.12,2.853112,-0.16975000000016394
346.13,2.851568,-0.1620500000001357
346.14,2.849871,-0.16199999999975034
346.15000000000003,2.848328,-0.15044999999969377
346.16,2.846862,-0.1582000000001358
346.17,2.845164,-0.1659000000001356
346.18,2.843544,-0.16590000000016403
346.19,2.841846,-0.16205000000016412
346.2,2.840303,-0.17360000000016385
346.21,2.838374,-0.1813499999997248
346.22,2.836676,-0.1735999999997091
346.23,2.834902,-0.16590000000016403
346.24,2.833358,-0.15435000000013588
346.25,2.831815,-0.16975000000016394
346.26,2.829963,-0.16590000000016403
346.27,2.828497,-0.1581999999996242
346.28000000000003,2.826799,-0.1620499999996241
346.29,2.825256,-0.15815000000011992
346.3,2.823636,-0.1504500000001201
346.31,2.822247,-0.15045000000014852
346.32,2.820627,-0.18130000000016366
346.33,2.818621,-0.1813499999997532
346.34000000000003,2.817,-0.18904999999978145
346.35,2.81484,-0.18520000000020787
346.36,2.813296,-0.1620500000001357
346.37,2.811599,-0.16975000000013551
346.38,2.809901,-0.17750000000017963
346.39,2.808049,-0.16974999999976603
346.40000000000003,2.806506,-0.14659999999966544
346.41,2.805117,-0.16205000000016412
346.42,2.803265,-0.15815000000014834
346.43,2.801954,-0.1466000000001202
346.44,2.800333,-0.16205000000016412
346.45,2.798713,-0.1466000000001486
346.46,2.797401,-0.14274999999966553
346.47,2.795858,-0.15044999999966535
346.48,2.794392,-0.1582000000001358
346.49,2.792694,-0.17360000000019227
346.5,2.79092,-0.15815000000014834
346.51,2.789531,-0.1620500000001357
346.52,2.787679,-0.16974999999976603
346.53000000000003,2.786136,-0.15819999999973788
346.54,2.784515,-0.1659000000001356
346.55,2.782818,-0.16975000000016394
346.56,2.78112,-0.1620500000001357
346.57,2.779577,-0.15815000000014834
346.58,2.777957,-0.16589999999968086
346.59000000000003,2.776259,-0.14279999999956772
346.6,2.775101,-0.14275000000012028
346.61,2.773404,-0.15815000000011992
346.62,2.771938,-0.16590000000016403
346.63,2.770086,-0.16590000000016403
346.64,2.76862,-0.1427499999997508
346.65000000000003,2.767231,-0.16204999999982306
346.66,2.765379,-0.16590000000016403
346.67,2.763913,-0.1466000000001486
346.68,2.762447,-0.16200000000011983
346.69,2.760673,-0.18520000000015102
346.7,2.758743,-0.16980000000015139
346.71,2.757277,-0.16204999999959568
346.72,2.755502,-0.1658999999995956
346.73,2.753959,-0.1504500000001201
346.74,2.752493,-0.14275000000012028
346.75,2.751104,-0.14275000000012028
346.76,2.749638,-0.16200000000017667
346.77,2.747864,-0.16199999999977877
346.78000000000003,2.746398,-0.13889999999966562
346.79,2.745086,-0.1389000000001488
346.8,2.74362,-0.1504500000001201
346.81,2.742077,-0.14275000000012028
346.82,2.740765,-0.1543500000001643
346.83,2.73899,-0.1697499999997092
346.84000000000003,2.73737,-0.17744999999973743
346.85,2.735441,-0.1659000000001356
346.86,2.734052,-0.1466000000001202
346.87,2.732509,-0.16975000000016394
346.88,2.730657,-0.1659000000001356
346.89,2.729191,-0.1581999999996242
346.90000000000003,2.727493,-0.16589999999968086
346.91,2.725873,-0.15045000000014852
346.92,2.724484,-0.1582000000001358
346.93,2.722709,-0.15435000000013588
346.94,2.721397,-0.1389000000001488
346.95,2.719931,-0.1350000000001046
346.96,2.718697,-0.15044999999955166
346.97,2.716922,-0.16204999999956726
346.98,2.715456,-0.17360000000016385
346.99,2.71345,-0.16975000000016394
347.0,2.712061,-0.1582000000001358
347.01,2.710286,-0.1620500000001357
347.02,2.70882,-0.14659999999972229
347.03000000000003,2.707354,-0.06169999999937659
347.04,2.707586,-0.1659000000001356
347.05,2.704036,-0.2469500000002256
347.06,2.702647,-0.1466000000001486
347.07,2.701104,-0.15430000000012
347.08,2.699561,-0.16204999999965253
347.09000000000003,2.697863,-0.1543499999996243
347.1,2.696474,-0.15815000000014834
347.11,2.6947,-0.15430000000012
347.12,2.693388,-0.13890000000012037
347.13,2.691922,-0.1427500000001487
347.14,2.690533,-0.15434999999959587
347.15000000000003,2.688835,-0.1581999999996242
347.16,2.687369,-0.15815000000014834
347.17,2.685672,-0.15815000000014834
347.18,2.684206,-0.1659000000001356
347.19,2.682354,-0.16975000000016394
347.2,2.680811,-0.16975000000019236
347.21,2.678959,-0.16204999999982306
347.22,2.67757,-0.15049999999973807
347.23,2.675949,-0.1582000000001642
347.24,2.674406,-0.15815000000014834
347.25,2.672786,-0.14275000000012028
347.26,2.671551,-0.14275000000012028
347.27,2.669931,-0.1581499999996936
347.28000000000003,2.668388,-0.1542999999997221
347.29,2.666845,-0.1427500000001487
347.3,2.665533,-0.13890000000012037
347.31,2.664067,-0.15050000000010755
347.32,2.662523,-0.17360000000019227
347.33,2.660595,-0.17744999999973743
347.34000000000003,2.658974,-0.16204999999965253
347.35,2.657354,-0.1582000000001642
347.36,2.65581,-0.1466000000001486
347.37,2.654422,-0.15430000000014843
347.38,2.652724,-0.1659000000001356
347.39,2.651104,-0.14274999999983606
347.40000000000003,2.649869,-0.14274999999983606
347.41,2.648249,-0.15435000000013588
347.42,2.646782,-0.16205000000016412
347.43,2.645008,-0.15045000000014852
347.44,2.643773,-0.13505000000009204
347.45,2.642307,-0.15430000000014843
347.46,2.640687,-0.14274999999983606
347.47,2.639452,-0.15044999999983588
347.48,2.637678,-0.16975000000013551
347.49,2.636057,-0.15435000000013588
347.5,2.634591,-0.1582000000001642
347.51,2.632893,-0.16205000000016412
347.52,2.63135,-0.16199999999966508
347.53000000000003,2.629653,-0.16974999999965235
347.54,2.627955,-0.16975000000013551
347.55,2.626258,-0.15430000000014843
347.56,2.624869,-0.1427500000001487
347.57,2.623403,-0.1659000000001356
347.58,2.621551,-0.15434999999988008
347.59000000000003,2.620316,-0.1350499999997794
347.6,2.61885,-0.135000000000133
347.61,2.617616,-0.1466000000001486
347.62,2.615918,-0.1659000000001356
347.63,2.614298,-0.1504500000001201
347.64,2.612909,-0.14659999999966544
347.65000000000003,2.611366,-0.1658999999997377
347.66,2.609591,-0.1736500000001513
347.67,2.607893,-0.1582000000001358
347.68,2.606427,-0.1466000000001486
347.69,2.604961,-0.15045000000014852
347.7,2.603418,-0.1659000000001356
347.71,2.601643,-0.17749999999966803
347.72,2.599868,-0.15429999999958
347.73,2.598557,-0.1427000000001044
347.74,2.597014,-0.14275000000012028
347.75,2.595702,-0.15050000000013597
347.76,2.594004,-0.1504500000001201
347.77,2.592693,-0.15429999999958
347.78000000000003,2.590918,-0.14664999999951078
347.79,2.58976,-0.13120000000012055
347.8,2.588294,-0.15815000000017676
347.81,2.586597,-0.16975000000016394
347.82,2.584899,-0.18905000000015093
347.83,2.582816,-0.2005999999996675
347.84000000000003,2.580887,-0.16974999999953866
347.85,2.579421,-0.1582000000001358
347.86,2.577723,-0.1620500000001357
347.87,2.57618,-0.16590000000016403
347.88,2.574405,-0.16205000000016412
347.89,2.572939,-0.14659999999969386
347.90000000000003,2.571473,-0.1504499999997222
347.91,2.56993,-0.13890000000012037
347.92,2.568695,-0.13505000000012046
347.93,2.567229,-0.15815000000014834
347.94,2.565532,-0.1620500000001357
347.95,2.563988,-0.1543500000001643
347.96,2.562445,-0.15044999999975062
347.97,2.560979,-0.14274999999970817
347.98,2.55959,-0.15430000000014843
347.99,2.557893,-0.12345000000011908
348.0,2.557121,-0.15435000000012167
348.01,2.554806,-0.20060000000017908
348.02,2.553109,-0.15429999999980737
348.03000000000003,2.55172,-0.14659999999976492
348.04,2.550177,-0.1620500000001499
348.05,2.548479,-0.1620500000001499
348.06,2.546936,-0.1466000000001344
348.07,2.545547,-0.1466000000001202
348.08,2.544004,-0.1465999999997507
348.09000000000003,2.542615,-0.1388999999997509
348.1,2.541226,-0.15430000000014843
348.11,2.539529,-0.1620500000001499
348.12,2.537985,-0.15050000000012176
348.13,2.536519,-0.16200000000014825
348.14,2.534745,-0.16204999999976621
348.15000000000003,2.533278,-0.15049999999973807
348.16,2.531735,-0.16975000000016394
348.17,2.529883,-0.1659000000001356
348.18,2.528417,-0.15430000000012
348.19,2.526797,-0.16200000000016246
348.2,2.525177,-0.1427500000001487
348.21,2.523942,-0.13119999999969423
348.22,2.522553,-0.13889999999972247
348.23,2.521164,-0.1466000000001202
348.24,2.519621,-0.1504500000001343
348.25,2.518155,-0.1620500000001499
348.26,2.51638,-0.1582000000001358
348.27,2.514991,-0.1542999999995942
348.28000000000003,2.513294,-0.1465999999996086
348.29,2.512059,-0.1582000000001358
348.3,2.51013,-0.17360000000014963
348.31,2.508587,-0.1582000000001642
348.32,2.506966,-0.1620500000001499
348.33,2.505346,-0.16974999999962392
348.34000000000003,2.503571,-0.14659999999953754
348.35,2.502414,-0.15430000000014843
348.36,2.500485,-0.14275000000012028
348.37,2.499559,-0.13505000000012046
348.38,2.497784,-0.17360000000014963
348.39,2.496087,-0.1427499999998787
348.40000000000003,2.494929,-0.13119999999982213
348.41,2.493463,-0.1504500000001343
348.42,2.49192,-0.1466000000001486
348.43,2.490531,-0.14275000000012028
348.44,2.489065,-0.1582000000001358
348.45,2.487367,-0.15820000000015
348.46,2.485901,-0.15814999999960833
348.47,2.484204,-0.17359999999968068
348.48,2.482429,-0.15820000000015
348.49,2.48104,-0.1504500000001343
348.5,2.47942,-0.1466000000001202
348.51,2.478108,-0.13890000000013458
348.52,2.476642,-0.16589999999958138
348.53000000000003,2.47479,-0.16589999999958138
348.54,2.473324,-0.14275000000012028
348.55,2.471935,-0.14275000000012028
348.56,2.470469,-0.15815000000016255
348.57,2.468772,-0.1466000000001344
348.58,2.467537,-0.12734999999973695
348.59000000000003,2.466225,-0.14274999999980764
348.6,2.464682,-0.16975000000016394
348.61,2.46283,-0.17745000000014954
348.62,2.461133,-0.1504500000001343
348.63,2.459821,-0.1466000000001344
348.64,2.458201,-0.16589999999963823
348.65000000000003,2.456503,-0.15049999999958175
348.66,2.455191,-0.1620500000001499
348.67,2.453262,-0.15815000000016255
348.68,2.452028,-0.1466000000001344
348.69,2.45033,-0.1466000000001344
348.7,2.449096,-0.1504500000001343
348.71,2.447321,-0.1465999999998786
348.72,2.446164,-0.1427499999998929
348.73,2.444466,-0.14665000000013606
348.74,2.443231,-0.14275000000012028
348.75,2.441611,-0.16200000000014825
348.76,2.439991,-0.1620500000001499
348.77,2.43837,-0.1466499999998092
348.78000000000003,2.437058,-0.14659999999979334
348.79,2.435438,-0.16200000000014825
348.8,2.433818,-0.16975000000013551
348.81,2.432043,-0.16975000000016394
348.82,2.430423,-0.14660000000016282
348.83,2.429111,-0.14274999999965132
348.84000000000003,2.427568,-0.15819999999972367
348.85,2.425947,-0.1466000000001344
348.86,2.424636,-0.14275000000012028
348.87,2.423092,-0.14665000000013606
348.88,2.421703,-0.15430000000014843
348.89,2.420006,-0.15429999999979316
348.90000000000003,2.418617,-0.1504999999997665
348.91,2.416996,-0.15435000000012167
348.92,2.41553,-0.15815000000016255
348.93,2.413833,-0.1350000000001188
348.94,2.41283,-0.13505000000012046
348.95,2.411132,-0.17750000000017963
348.96,2.40928,-0.18129999999965207
348.97,2.407506,-0.17359999999963804
348.98,2.405808,-0.1466000000001344
348.99,2.404574,-0.13115000000010468
349.0,2.403185,-0.15050000000015018
349.01,2.401564,-0.13890000000013458
349.02,2.400407,-0.13114999999964994
349.03000000000003,2.398941,-0.07329999999943482
349.04,2.398941,-0.1543500000001501
349.05,2.395854,-0.2122000000002089
349.06,2.394697,-0.1466000000001344
349.07,2.392922,-0.1582000000001358
349.08,2.391533,-0.14274999999969396
349.09000000000003,2.390067,-0.16199999999977877
349.1,2.388293,-0.17745000000016375
349.11,2.386518,-0.16590000000016403
349.12,2.384975,-0.1466000000001344
349.13,2.383586,-0.12735000000010643
349.14,2.382428,-0.1543499999994964
349.15000000000003,2.380499,-0.17359999999955278
349.16,2.378956,-0.15815000000013413
349.17,2.377336,-0.1620500000001499
349.18,2.375715,-0.1427500000001487
349.19,2.374481,-0.1504500000001343
349.2,2.372706,-0.1582000000001358
349.21,2.371317,-0.14274999999969396
349.22,2.369851,-0.13114999999964994
349.23,2.368694,-0.1427500000001345
349.24,2.366996,-0.17750000000017963
349.25,2.365144,-0.16975000000014973
349.26,2.363601,-0.1466000000001202
349.27,2.362212,-0.15819999999958156
349.28000000000003,2.360437,-0.1658999999996098
349.29,2.358894,-0.1466000000001344
349.3,2.357505,-0.1504500000001343
349.31,2.355885,-0.15815000000014834
349.32,2.354342,-0.1504500000001201
349.33,2.352876,-0.1581999999996242
349.34000000000003,2.351178,-0.18904999999975303
349.35,2.349095,-0.16590000000014982
349.36,2.34786,-0.1504500000001343
349.37,2.346086,-0.1466000000001344
349.38,2.344928,-0.13505000000012046
349.39,2.343385,-0.15429999999969368
349.40000000000003,2.341842,-0.15049999999969543
349.41,2.340375,-0.1543500000001501
349.42,2.338755,-0.16200000000014825
349.43,2.337135,-0.17360000000014963
349.44,2.335283,-0.16590000000014982
349.45,2.333817,-0.15820000000015
349.46,2.332119,-0.16204999999970937
349.47,2.330576,-0.14274999999967974
349.48,2.329264,-0.1620500000001499
349.49,2.327335,-0.16200000000014825
349.5,2.326024,-0.1466000000001202
349.51,2.324403,-0.15050000000012176
349.52,2.323014,-0.13499999999977774
349.53000000000003,2.321703,-0.1272999999997495
349.54,2.320468,-0.13890000000010616
349.55,2.318925,-0.15820000000015
349.56,2.317304,-0.15820000000015
349.57,2.315761,-0.15430000000014843
349.58,2.314218,-0.15819999999969525
349.59000000000003,2.312597,-0.15044999999965114
349.6,2.311209,-0.1466000000001202
349.61,2.309665,-0.1620500000001499
349.62,2.307968,-0.16200000000014825
349.63,2.306425,-0.1582000000001358
349.64,2.304804,-0.15819999999970946
349.65000000000003,2.303261,-0.14274999999965132
349.66,2.301949,-0.1427500000001345
349.67,2.300406,-0.15430000000014843
349.68,2.298863,-0.1466000000001486
349.69,2.297474,-0.15820000000015
349.7,2.295699,-0.13890000000010616
349.71,2.294696,-0.13114999999955046
349.72,2.293076,-0.15429999999966526
349.73,2.29161,-0.15050000000015018
349.74,2.290066,-0.15435000000013588
349.75,2.288523,-0.16590000000014982
349.76,2.286748,-0.17360000000014963
349.77,2.285051,-0.14659999999985018
349.78000000000003,2.283816,-0.1465999999998644
349.79,2.282119,-0.16200000000014825
349.8,2.280576,-0.15435000000013588
349.81,2.279032,-0.15435000000012167
349.82,2.277489,-0.13885000000013292
349.83,2.276255,-0.14659999999958018
349.84000000000003,2.274557,-0.15049999999958175
349.85,2.273245,-0.1427500000001487
349.86,2.271702,-0.1427500000001487
349.87,2.27039,-0.1582000000001358
349.88,2.268538,-0.17360000000014963
349.89,2.266918,-0.15044999999976483
349.90000000000003,2.265529,-0.1427499999997366
349.91,2.264063,-0.15815000000013413
349.92,2.262366,-0.16590000000016403
349.93,2.260745,-0.16590000000016403
349.94,2.259048,-0.1504500000001343
349.95,2.257736,-0.1466000000001344
349.96,2.256116,-0.15819999999969525
349.97,2.254572,-0.14274999999965132
349.98,2.253261,-0.1311500000001189
349.99,2.251949,-0.007750000000015689
350.0,2.253106,-0.1466000000001486
350.01,2.249017,-0.2777500000002533
350.02,2.247551,-0.150499999999667
350.03000000000003,2.246007,-0.16204999999972358
350.04,2.24431,-0.15815000000016255
350.05,2.242844,-0.1504500000001343
350.06,2.241301,-0.15050000000012176
350.07,2.239834,-0.15050000000015018
350.08,2.238291,-0.1697499999995955
350.09000000000003,2.236439,-0.16589999999956717
350.1,2.234973,-0.16585000000014816
350.11,2.233122,-0.15430000000014843
350.12,2.231887,-0.13120000000012055
350.13,2.230498,-0.1466000000001202
350.14,2.228955,-0.1697499999995813
350.15000000000003,2.227103,-0.1465999999994949
350.16,2.226023,-0.12730000000011898
350.17,2.224557,-0.1543500000001501
350.18,2.222936,-0.15050000000012176
350.19,2.221547,-0.13890000000012037
350.2,2.220158,-0.15815000000016255
350.21,2.218384,-0.16199999999977877
350.22,2.216918,-0.15434999999975219
350.23,2.215297,-0.16590000000016403
350.24,2.2136,-0.1620500000001499
350.25,2.212056,-0.1582000000001358
350.26,2.210436,-0.15045000000014852
350.27,2.209047,-0.15044999999963693
350.28000000000003,2.207427,-0.15429999999966526
350.29,2.205961,-0.15435000000012167
350.3,2.20434,-0.1504500000001343
350.31,2.202952,-0.11960000000013338
350.32,2.201948,-0.13890000000012037
350.33,2.200174,-0.16199999999976455
350.34000000000003,2.198708,-0.15434999999975219
350.35,2.197087,-0.15050000000012176
350.36,2.195698,-0.1466000000001344
350.37,2.194155,-0.1466000000001202
350.38,2.192766,-0.13890000000010616
350.39,2.191377,-0.16204999999955305
350.40000000000003,2.189525,-0.1697499999995955
350.41,2.187982,-0.13885000000013292
350.42,2.186748,-0.15815000000013413
350.43,2.184819,-0.18520000000016523
350.44,2.183044,-0.15820000000015
350.45,2.181655,-0.1466000000001486
350.46,2.180112,-0.13889999999983615
350.47,2.178877,-0.1504499999998643
350.48,2.177103,-0.16590000000014982
350.49,2.175559,-0.15435000000012167
350.5,2.174016,-0.13890000000012037
350.51,2.172781,-0.1466000000001344
350.52,2.171084,-0.1427499999998929
350.53000000000003,2.169926,-0.14274999999986449
350.54,2.168229,-0.16200000000014825
350.55,2.166686,-0.1620500000001499
350.56,2.164988,-0.15050000000012176
350.57,2.163676,-0.1504500000001343
350.58,2.161979,-0.15814999999977886
350.59000000000003,2.160513,-0.1543499999997664
350.6,2.158892,-0.1582000000001358
350.61,2.157349,-0.16200000000013404
350.62,2.155652,-0.1504500000001343
350.63,2.15434,-0.15435000000013588
350.64,2.152565,-0.14274999999990712
350.65000000000003,2.151485,-0.14274999999993554
350.66,2.14971,-0.16975000000017815
350.67,2.14809,-0.15430000000012
350.68,2.146624,-0.13890000000010616
350.69,2.145312,-0.13120000000012055
350.7,2.144,-0.1582000000001358
350.71,2.142148,-0.15814999999986412
350.72,2.140837,-0.1581499999998499
350.73,2.138985,-0.1736500000001513
350.74,2.137364,-0.1466000000001344
350.75,2.136053,-0.13885000000013292
350.76,2.134587,-0.1466000000001202
350.77,2.133121,-0.16204999999958147
350.78000000000003,2.131346,-0.15049999999956754
350.79,2.130111,-0.15045000000014852
350.8,2.128337,-0.17360000000014963
350.81,2.126639,-0.1543500000001501
350.82,2.12525,-0.13505000000013467
350.83,2.123938,-0.1465999999996228
350.84000000000003,2.122318,-0.1619999999996793
350.85,2.120698,-0.14275000000012028
350.86,2.119463,-0.14275000000012028
350.87,2.117843,-0.1504500000001343
350.88,2.116454,-0.13120000000012055
350.89,2.115219,-0.18904999999926986
350.90000000000003,2.112673,-0.20829999999934046
350.91,2.111053,-0.1620500000001499
350.92,2.109432,-0.1736500000001655
350.93,2.10758,-0.1504500000001343
350.94,2.106423,-0.13115000000010468
350.95,2.104957,-0.16590000000016403
350.96,2.103105,-0.1504999999999228
350.97,2.101947,-0.1465999999998786
