Signal Name,Original_Signal (Time Cut)
holding_voltage,2.9868186110842587
unloading_parameter,[-8.43606730e-04  8.69949048e-01 -2.99192875e+02  3.43196270e+04]
peak_time,340.73
peak_value,2.986446
peak_mean,2.9869702874251494
plus_minus_toleranz,0.00112304891490261
U3,0.08027854264685086
U3_mean,0.08080283007200029
manufacturer,eaton
capacitance,25
typ,C
methode,B
klass,1
dut,2
version,1
U_R,3.0
ESR,0.018
I_c,4.386
I_dc,4.167





time,value,derivative
340.73,2.986446,-4.429000000004
340.74,2.942156,-3.3951000000031115
340.75,2.918544,-1.4931000000013626
340.76,2.912294,-0.5632500000004939
340.77,2.907279,-0.45139999999940983
340.78000000000003,2.903266,-0.37039999999910833
340.79,2.899871,-0.33180000000029963
340.8,2.89663,-0.2932000000002688
340.81,2.894007,-0.27005000000022505
340.82,2.891229,-0.285500000000269
340.83,2.888297,-0.25464999999974225
340.84000000000003,2.886136,-0.21989999999959764
340.85,2.883899,-0.24305000000023824
340.86,2.881275,-0.25850000000025375
340.87,2.878729,-0.22375000000022283
340.88,2.8768,-0.20450000000016644
340.89,2.874639,-0.20449999999962643
340.90000000000003,2.87271,-0.18899999999962347
340.91,2.870859,-0.19675000000017917
340.92,2.868775,-0.19290000000015084
340.93,2.867001,-0.17360000000016385
340.94,2.865303,-0.18135000000017953
340.95,2.863374,-0.285500000000269
340.96,2.859593,-0.18135000000074797
340.97,2.859747,-0.08490000000037412
340.98,2.857895,-0.19675000000017917
340.99,2.855812,-0.18515000000016357
341.0,2.854192,-0.18520000000017944
341.01,2.852108,-0.18135000000017953
341.02,2.850565,-0.1581499999996936
341.03000000000003,2.848945,-0.16589999999970928
341.04,2.847247,-0.16975000000019236
341.05,2.84555,-0.16205000000016412
341.06,2.844006,-0.15050000000010755
341.07,2.84254,-0.16975000000013551
341.08,2.840611,-0.17744999999976585
341.09000000000003,2.838991,-0.16584999999972183
341.1,2.837294,-0.1967500000002076
341.11,2.835056,-0.18520000000017944
341.12,2.83359,-0.15050000000010755
341.13,2.832046,-0.1736500000001513
341.14,2.830117,-0.15814999999992096
341.15000000000003,2.828883,-0.15814999999989254
341.16,2.826954,-0.16975000000016394
341.17,2.825488,-0.1466000000001486
341.18,2.824022,-0.1582000000001358
341.19,2.822324,-0.17365000000012287
341.2,2.820549,-0.20835000000019477
341.21,2.818157,-0.21599999999972397
341.22,2.816229,-0.19289999999961083
341.23,2.814299,-0.1582000000001358
341.24,2.813065,-0.15430000000014843
341.25,2.811213,-0.1582000000001358
341.26,2.809901,-0.1466000000001486
341.27,2.808281,-0.16589999999965244
341.28000000000003,2.806583,-0.16589999999968086
341.29,2.804963,-0.15815000000011992
341.3,2.80342,-0.1466000000001202
341.31,2.802031,-0.1466000000001486
341.32,2.800488,-0.16975000000013551
341.33,2.798636,-0.18904999999961092
341.34000000000003,2.796707,-0.17749999999958277
341.35,2.795086,-0.16205000000016412
341.36,2.793466,-0.16200000000014825
341.37,2.791846,-0.14275000000012028
341.38,2.790611,-0.15435000000013588
341.39,2.788759,-0.15819999999988
341.40000000000003,2.787447,-0.1388999999997793
341.41,2.785981,-0.1504500000001201
341.42,2.784438,-0.16200000000014825
341.43,2.782741,-0.17360000000016385
341.44,2.780966,-0.18135000000017953
341.45,2.779114,-0.19290000000017926
341.46,2.777108,-0.16204999999993674
341.47,2.775873,-0.15819999999988
341.48,2.773944,-0.17360000000016385
341.49,2.772401,-0.1504500000001201
341.5,2.770935,-0.1659000000001356
341.51,2.769083,-0.16975000000016394
341.52,2.76754,-0.1504499999997222
341.53000000000003,2.766074,-0.14659999999969386
341.54,2.764608,-0.15435000000013588
341.55,2.762987,-0.15435000000013588
341.56,2.761521,-0.17360000000016385
341.57,2.759515,-0.17360000000013542
341.58,2.758049,-0.1543499999996527
341.59000000000003,2.756428,-0.15819999999970946
341.6,2.754885,-0.16200000000014825
341.61,2.753188,-0.15430000000012
341.62,2.751799,-0.13890000000012037
341.63,2.75041,-0.15045000000014852
341.64,2.74879,-0.14659999999980755
341.65000000000003,2.747478,-0.17749999999995225
341.66,2.74524,-0.19290000000017926
341.67,2.74362,-0.15430000000012
341.68,2.742154,-0.16590000000016403
341.69,2.740302,-0.16590000000016403
341.7,2.738836,-0.16975000000013551
341.71,2.736907,-0.16974999999982288
341.72,2.735441,-0.14659999999972229
341.73,2.733975,-0.13505000000009204
341.74,2.73274,-0.1505000000001644
341.75,2.730965,-0.1427500000001487
341.76,2.729885,-0.13890000000009195
341.77,2.728187,-0.16589999999968086
341.78000000000003,2.726567,-0.17744999999973743
341.79,2.724638,-0.16975000000016394
341.8,2.723172,-0.17360000000016385
341.81,2.721166,-0.17745000000016375
341.82,2.719623,-0.16975000000016394
341.83,2.717771,-0.15434999999988008
341.84000000000003,2.716536,-0.14274999999980764
341.85,2.714916,-0.1466000000001202
341.86,2.713604,-0.15045000000014852
341.87,2.711907,-0.15815000000017676
341.88,2.710441,-0.1582000000001358
341.89,2.708743,-0.1697999999996398
341.90000000000003,2.707045,-0.16204999999965253
341.91,2.705502,-0.05015000000003056
341.92,2.706042,-0.16205000000016412
341.93,2.702261,-0.26620000000022515
341.94,2.700718,-0.15045000000014852
341.95,2.699252,-0.1427500000001487
341.96,2.697863,-0.15044999999966535
341.97,2.696243,-0.14659999999963702
341.98,2.694931,-0.13890000000012037
341.99,2.693465,-0.17745000000016375
342.0,2.691382,-0.18905000000017935
342.01,2.689684,-0.17360000000013542
342.02,2.68791,-0.15044999999989273
342.03000000000003,2.686675,-0.15819999999988
342.04,2.684746,-0.18135000000017953
342.05,2.683048,-0.15045000000014852
342.06,2.681737,-0.135000000000133
342.07,2.680348,-0.15050000000013597
342.08,2.678727,-0.1697499999995955
342.09000000000003,2.676953,-0.1581499999995799
342.1,2.675564,-0.16205000000016412
342.11,2.673712,-0.16590000000016403
342.12,2.672246,-0.1582000000001358
342.13,2.670548,-0.1582000000001358
342.14,2.669082,-0.17359999999951015
342.15000000000003,2.667076,-0.16974999999951024
342.16,2.665687,-0.1466000000001486
342.17,2.664144,-0.15045000000014852
342.18,2.662678,-0.13505000000012046
342.19,2.661443,-0.15050000000013597
342.2,2.659668,-0.1620500000001357
342.21,2.658202,-0.14269999999976335
342.22,2.656814,-0.1697499999998513
342.23,2.654807,-0.1775000000001512
342.24,2.653264,-0.15815000000011992
342.25,2.651644,-0.16205000000016412
342.26,2.650023,-0.16975000000016394
342.27,2.648249,-0.1658999999997377
342.28000000000003,2.646705,-0.15819999999970946
342.29,2.645085,-0.1466000000001202
342.3,2.643773,-0.13505000000014888
342.31,2.642384,-0.1350000000001046
342.32,2.641073,-0.16200000000011983
342.33,2.639144,-0.16974999999979445
342.34000000000003,2.637678,-0.15434999999973797
342.35,2.636057,-0.16595000000015148
342.36,2.634359,-0.16975000000016394
342.37,2.632662,-0.16585000000014816
342.38,2.631042,-0.15045000000014852
342.39,2.629653,-0.15819999999959578
342.40000000000003,2.627878,-0.15434999999956744
342.41,2.626566,-0.1504500000001201
342.42,2.624869,-0.15430000000014843
342.43,2.62348,-0.1659000000001356
342.44,2.621551,-0.16975000000013551
342.45,2.620085,-0.15045000000014852
342.46,2.618542,-0.1620499999996241
342.47,2.616844,-0.16589999999968086
342.48,2.615224,-0.17360000000013542
342.49,2.613372,-0.14665000000013606
342.5,2.612291,-0.13120000000012055
342.51,2.610748,-0.15430000000012
342.52,2.609205,-0.1504499999997222
342.53000000000003,2.607739,-0.13889999999969405
342.54,2.606427,-0.16975000000013551
342.55,2.604344,-0.16975000000019236
342.56,2.603032,-0.1389000000001488
342.57,2.601566,-0.15045000000009168
342.58,2.600023,-0.17744999999953848
342.59000000000003,2.598017,-0.17359999999951015
342.6,2.596551,-0.1620500000001357
342.61,2.594776,-0.1582000000001358
342.62,2.593387,-0.15430000000014843
342.63,2.59169,-0.15045000000014852
342.64,2.590378,-0.14279999999965298
342.65000000000003,2.588834,-0.1466499999996813
342.66,2.587445,-0.14275000000012028
342.67,2.585979,-0.18130000000016366
342.68,2.583819,-0.19675000000017917
342.69,2.582044,-0.18520000000017944
342.7,2.580115,-0.17745000000016375
342.71,2.578495,-0.158149999999722
342.72,2.576952,-0.17749999999981014
342.73,2.574945,-0.15050000000013597
342.74,2.573942,-0.135000000000133
342.75,2.572245,-0.16975000000016394
342.76,2.570547,-0.1504500000001201
342.77,2.569236,-0.15429999999955157
342.78000000000003,2.567461,-0.16204999999959568
342.79,2.565995,-0.1427500000001487
342.8,2.564606,-0.16975000000013551
342.81,2.5626,-0.18905000000017935
342.82,2.560825,-0.16205000000016412
342.83,2.559359,-0.1581999999996384
342.84000000000003,2.557661,-0.1581999999996242
342.85,2.556195,-0.1466000000001344
342.86,2.554729,-0.13885000000013292
342.87,2.553418,-0.1466000000001344
342.88,2.551797,-0.1582000000001642
342.89,2.550254,-0.14274999999980764
342.90000000000003,2.548942,-0.15429999999982158
342.91,2.547168,-0.17360000000016385
342.92,2.54547,-0.17750000000016541
342.93,2.543618,-0.1620500000001499
342.94,2.542229,-0.1466000000001344
342.95,2.540686,-0.027000000000015234
342.96,2.541689,-0.17359999999810327
342.97,2.537214,-0.28164999999852114
342.98,2.536056,-0.12735000000013486
342.99,2.534667,-0.1350000000001188
343.0,2.533356,-0.15430000000012
343.01,2.531581,-0.15435000000013588
343.02,2.530269,-0.15819999999952472
343.03000000000003,2.528417,-0.18519999999965364
343.04,2.526565,-0.17360000000014963
343.05,2.524945,-0.15815000000016255
343.06,2.523402,-0.1504500000001343
343.07,2.521936,-0.17360000000014963
343.08,2.51993,-0.1658999999998798
343.09000000000003,2.518618,-0.13119999999975107
343.1,2.517306,-0.13120000000012055
343.11,2.515994,-0.1504500000001343
343.12,2.514297,-0.16200000000013404
343.13,2.512754,-0.1466000000001344
343.14,2.511365,-0.16204999999955305
343.15000000000003,2.509513,-0.1774999999996254
343.16,2.507815,-0.16975000000017815
343.17,2.506118,-0.15815000000013413
343.18,2.504652,-0.1659000000001356
343.19,2.5028,-0.1582000000001358
343.2,2.501488,-0.1427500000001345
343.21,2.499945,-0.14274999999979343
343.22,2.498633,-0.14659999999979334
343.23,2.497013,-0.1504500000001343
343.24,2.495624,-0.14275000000012028
343.25,2.494158,-0.1659000000001356
343.26,2.492306,-0.1736500000001655
343.27,2.490685,-0.16204999999969516
343.28000000000003,2.489065,-0.1697499999997376
343.29,2.48729,-0.17745000000016375
343.3,2.485516,-0.15815000000013413
343.31,2.484127,-0.13890000000013458
343.32,2.482738,-0.13120000000012055
343.33,2.481503,-0.1427499999996087
343.34000000000003,2.479883,-0.15429999999965105
343.35,2.478417,-0.1427500000001487
343.36,2.477028,-0.1582000000001358
343.37,2.475253,-0.17360000000014963
343.38,2.473556,-0.17745000000016375
343.39,2.471704,-0.17749999999968225
343.40000000000003,2.470006,-0.17359999999968068
343.41,2.468232,-0.15430000000014843
343.42,2.46692,-0.14665000000013606
343.43,2.465299,-0.1582000000001358
343.44,2.463756,-0.15430000000013422
343.45,2.462213,-0.1350000000001188
343.46,2.461056,-0.13504999999962308
343.47,2.459512,-0.1658999999997519
343.48,2.457738,-0.16975000000016394
343.49,2.456117,-0.15435000000013588
343.5,2.454651,-0.1659000000001356
343.51,2.452799,-0.15815000000014834
343.52,2.451488,-0.14659999999965123
343.53000000000003,2.449867,-0.16589999999969507
343.54,2.44817,-0.17360000000014963
343.55,2.446395,-0.15050000000015018
343.56,2.44516,-0.11960000000010496
343.57,2.444003,-0.13885000000013292
343.58,2.442383,-0.16589999999965244
343.59000000000003,2.440685,-0.1581999999996242
343.6,2.439219,-0.1620500000001499
343.61,2.437444,-0.16975000000014973
343.62,2.435824,-0.15815000000016255
343.63,2.434281,-0.1582000000001642
343.64,2.43266,-0.15434999999973797
343.65000000000003,2.431194,-0.15814999999975043
343.66,2.429497,-0.16590000000016403
343.67,2.427876,-0.14275000000012028
343.68,2.426642,-0.1350000000001188
343.69,2.425176,-0.1427500000001487
343.7,2.423787,-0.15050000000015018
343.71,2.422166,-0.16589999999963823
343.72,2.420469,-0.17359999999968068
343.73,2.418694,-0.16975000000016394
343.74,2.417074,-0.1466000000001344
343.75,2.415762,-0.15435000000013588
343.76,2.413987,-0.16590000000014982
343.77,2.412444,-0.15814999999967938
343.78000000000003,2.410824,-0.15429999999963684
343.79,2.409358,-0.15435000000013588
343.8,2.407737,-0.15050000000013597
343.81,2.406348,-0.13890000000013458
343.82,2.404959,-0.15045000000014852
343.83,2.403339,-0.1581499999997078
343.84000000000003,2.401796,-0.17359999999976594
343.85,2.399867,-0.1813500000001511
343.86,2.398169,-0.1620500000001499
343.87,2.396626,-0.15815000000016255
343.88,2.395006,-0.15435000000013588
343.89,2.393539,-0.15819999999960999
343.90000000000003,2.391842,-0.1426999999995786
343.91,2.390685,-0.030850000000029354
343.92,2.391225,-0.15435000000013588
343.93,2.387598,-0.2469500000002256
343.94,2.386286,-0.13505000000012046
343.95,2.384897,-0.16200000000013404
343.96,2.383046,-0.177449999999709
343.97,2.381348,-0.16204999999963832
343.98,2.379805,-0.1620500000001499
343.99,2.378107,-0.17750000000017963
344.0,2.376255,-0.18515000000016357
344.01,2.374404,-0.17360000000014963
344.02,2.372783,-0.1504999999997807
344.03000000000003,2.371394,-0.14659999999976492
344.04,2.369851,-0.14275000000012028
344.05,2.368539,-0.13890000000013458
344.06,2.367073,-0.15815000000016255
344.07,2.365376,-0.15815000000013413
344.08,2.36391,-0.16974999999953866
344.09000000000003,2.361981,-0.16204999999951042
344.1,2.360669,-0.13505000000012046
344.11,2.35928,-0.1582000000001358
344.12,2.357505,-0.17360000000014963
344.13,2.355808,-0.16200000000016246
344.14,2.354265,-0.16204999999963832
344.15000000000003,2.352567,-0.14274999999956606
344.16,2.35141,-0.1466000000001344
344.17,2.349635,-0.18135000000016532
344.18,2.347783,-0.18135000000017953
344.19,2.346008,-0.15820000000015
344.2,2.344619,-0.1620500000001499
344.21,2.342767,-0.17744999999968059
344.22,2.34107,-0.16974999999966656
344.23,2.339372,-0.1466000000001486
344.24,2.338138,-0.15430000000014843
344.25,2.336286,-0.1775000000001512
344.26,2.334588,-0.13890000000010616
344.27,2.333508,-0.11959999999970705
344.28000000000003,2.332196,-0.15429999999985
344.29,2.330422,-0.15815000000014834
344.3,2.329033,-0.1620500000001499
344.31,2.327181,-0.16975000000014973
344.32,2.325638,-0.16590000000016403
344.33,2.323863,-0.1504499999998501
344.34000000000003,2.322629,-0.1542999999998642
344.35,2.320777,-0.1698000000001656
344.36,2.319233,-0.1543500000001501
344.37,2.31769,-0.16200000000013404
344.38,2.315993,-0.1620500000001357
344.39,2.314449,-0.14664999999976658
344.40000000000003,2.31306,-0.1427499999997508
344.41,2.311594,-0.1466000000001344
344.42,2.310128,-0.15430000000014843
344.43,2.308508,-0.16200000000016246
344.44,2.306888,-0.1620500000001357
344.45,2.305267,-0.1659000000001356
344.46,2.30357,-0.16974999999968077
344.47,2.301872,-0.16974999999969498
344.48,2.300175,-0.15815000000013413
344.49,2.298709,-0.14665000000013606
344.5,2.297242,-0.15050000000015018
344.51,2.295699,-0.1427500000001345
344.52,2.294387,-0.14274999999965132
344.53000000000003,2.292844,-0.15044999999969377
344.54,2.291378,-0.15430000000014843
344.55,2.289758,-0.15430000000012
344.56,2.288292,-0.1466000000001202
344.57,2.286826,-0.17750000000017963
344.58,2.284742,-0.18904999999973882
344.59000000000003,2.283045,-0.17359999999968068
344.6,2.28127,-0.1466000000001344
344.61,2.280113,-0.1504500000001343
344.62,2.278261,-0.1620500000001499
344.63,2.276872,-0.13120000000012055
344.64,2.275637,-0.1388999999996514
344.65000000000003,2.274094,-0.1542999999997079
344.66,2.272551,-0.1659000000001356
344.67,2.270776,-0.17750000000016541
344.68,2.269001,-0.17360000000014963
344.69,2.267304,-0.15430000000013422
344.7,2.265915,-0.1582000000001642
344.71,2.26414,-0.15819999999979473
344.72,2.262751,-0.13889999999972247
344.73,2.261362,-0.15815000000014834
344.74,2.259588,-0.15045000000014852
344.75,2.258353,-0.1427500000001345
344.76,2.256733,-0.13890000000013458
344.77,2.255575,-0.14659999999953754
344.78000000000003,2.253801,-0.17359999999963804
344.79,2.252103,-0.15820000000015
344.8,2.250637,-0.16590000000016403
344.81,2.248785,-0.17745000000016375
344.82,2.247088,-0.15430000000012
344.83,2.245699,-0.1504999999996528
344.84000000000003,2.244078,-0.1697499999997234
344.85,2.242304,-0.15815000000013413
344.86,2.240915,-0.13890000000012037
344.87,2.239526,-0.1427500000001487
344.88,2.23806,-0.1466000000001202
344.89,2.236594,-0.15044999999969377
344.90000000000003,2.235051,-0.15049999999969543
344.91,2.233584,-0.15820000000015
344.92,2.231887,-0.18515000000017778
344.93,2.229881,-0.16590000000014982
344.94,2.228569,-0.17360000000016385
344.95,2.226409,-0.04630000000003065
344.96,2.227643,-0.13889999999823033
344.97,2.223631,-0.2777999999987628
344.98,2.222087,-0.1427500000001487
344.99,2.220776,-0.1350000000001188
345.0,2.219387,-0.1582000000001358
345.01,2.217612,-0.17360000000016385
345.02,2.215915,-0.1581999999997521
345.03000000000003,2.214448,-0.16204999999978043
345.04,2.212674,-0.17360000000016385
345.05,2.210976,-0.16975000000014973
345.06,2.209279,-0.16590000000014982
345.07,2.207658,-0.1582000000001358
345.08,2.206115,-0.142749999999765
345.09000000000003,2.204803,-0.1272999999997353
345.1,2.203569,-0.1466000000001344
345.11,2.201871,-0.15435000000013588
345.12,2.200482,-0.1466000000001344
345.13,2.198939,-0.1620500000001499
345.14,2.197241,-0.1620499999997378
345.15000000000003,2.195698,-0.16974999999975182
345.16,2.193846,-0.16590000000014982
345.17,2.19238,-0.15815000000016255
345.18,2.190683,-0.17360000000016385
345.19,2.188908,-0.1582000000001358
345.2,2.187519,-0.1427500000001345
345.21,2.186053,-0.1388999999997793
345.22,2.184741,-0.14659999999980755
345.23,2.183121,-0.15045000000014852
345.24,2.181732,-0.14275000000012028
345.25,2.180266,-0.16975000000013551
345.26,2.178337,-0.18905000000017935
345.27,2.176485,-0.16974999999975182
345.28000000000003,2.174942,-0.1581499999997078
345.29,2.173322,-0.1620500000001499
345.3,2.171701,-0.1620500000001499
345.31,2.170081,-0.15815000000014834
345.32,2.168538,-0.1620500000001499
345.33,2.16684,-0.1504999999997949
345.34000000000003,2.165528,-0.1350499999997652
345.35,2.164139,-0.15430000000013422
345.36,2.162442,-0.16200000000014825
345.37,2.160899,-0.15435000000013588
345.38,2.159355,-0.1543500000001501
345.39,2.157812,-0.16584999999962236
345.40000000000003,2.156038,-0.17744999999966637
345.41,2.154263,-0.1620500000001499
345.42,2.152797,-0.15435000000013588
345.43,2.151176,-0.1620500000001499
345.44,2.149556,-0.1466000000001202
345.45,2.148244,-0.13890000000013458
345.46,2.146778,-0.15044999999969377
345.47,2.145235,-0.15044999999967956
345.48,2.143769,-0.1466000000001202
345.49,2.142303,-0.1582000000001358
345.5,2.140605,-0.18135000000017953
345.51,2.138676,-0.1659000000001356
345.52,2.137287,-0.15044999999962272
345.53000000000003,2.135667,-0.16589999999970928
345.54,2.133969,-0.15430000000014843
345.55,2.132581,-0.16200000000013404
345.56,2.130729,-0.16590000000016403
345.57,2.129263,-0.13890000000013458
345.58,2.127951,-0.14664999999963868
345.59000000000003,2.12633,-0.1543499999996527
345.6,2.124864,-0.1466000000001202
345.61,2.123398,-0.15045000000014852
345.62,2.121855,-0.1620500000001499
345.63,2.120157,-0.1620500000001499
345.64,2.118614,-0.18129999999946733
345.65000000000003,2.116531,-0.2005999999995538
345.66,2.114602,-0.16975000000017815
345.67,2.113136,-0.15820000000015
345.68,2.111438,-0.177500000000137
345.69,2.109586,-0.17360000000017806
345.7,2.107966,-0.14270000000014704
345.71,2.106732,-0.14659999999958018
345.72,2.105034,-0.14664999999958184
345.73,2.103799,-0.15820000000015
345.74,2.10187,-0.16975000000013551
345.75,2.100404,-0.1659000000001356
345.76,2.098552,-0.17745000000016375
345.77,2.096855,-0.15814999999977886
345.78000000000003,2.095389,-0.1543499999997664
345.79,2.093768,-0.15050000000013597
345.8,2.092379,-0.1466000000001202
345.81,2.090836,-0.14270000000013283
345.82,2.089525,-0.1466000000001344
345.83,2.087904,-0.16204999999968095
345.84000000000003,2.086284,-0.15814999999966517
345.85,2.084741,-0.16590000000014982
345.86,2.082966,-0.1582000000001642
345.87,2.081577,-0.1620500000001499
345.88,2.079725,-0.17360000000014963
